Satellite_foot using JRM09 model field and CAN’81 magnetodisc model
Coordinates of Satellite Footprints in Southern Hemisphere
W Long                AM                IO                EU                GA
     0   -48.61     3.82   -61.84     6.73   -65.97     7.96   -68.41     8.81
     5   -48.40     8.82   -61.59    11.28   -65.71    12.22   -68.20    12.84
    10   -48.17    13.87   -61.33    15.86   -65.47    16.49   -67.96    16.87
    15   -47.94    19.01   -61.03    20.48   -65.20    20.78   -67.73    20.91
    20   -47.67    24.26   -60.71    25.12   -64.94    25.06   -67.52    24.92
    25   -47.32    29.62   -60.37    29.75   -64.64    29.32   -67.27    28.91
    30   -46.85    35.02   -59.97    34.33   -64.34    33.53   -67.04    32.86
    35   -46.22    40.36   -59.52    38.82   -64.03    37.67   -66.79    36.74
    40   -45.46    45.55   -59.06    43.18   -63.71    41.71   -66.57    40.55
    45   -44.59    50.52   -58.62    47.39   -63.41    45.64   -66.34    44.28
    50   -43.63    55.27   -58.19    51.42   -63.12    49.45   -66.14    47.90
    55   -42.58    59.81   -57.81    55.27   -62.89    53.12   -65.99    51.42
    60   -41.44    64.14   -57.52    58.96   -62.72    56.66   -65.89    54.84
    65   -40.21    68.23   -57.31    62.50   -62.62    60.09   -65.84    58.18
    70   -38.92    72.07   -57.22    65.93   -62.61    63.42   -65.88    61.42
    75   -37.74    75.61   -57.23    69.26   -62.70    66.67   -65.98    64.61
    80   -36.84    78.87   -57.38    72.53   -62.88    69.87   -66.19    67.73
    85   -36.44    81.89   -57.64    75.77   -63.17    73.05   -66.48    70.84
    90   -36.65    84.78   -58.03    79.00   -63.57    76.21   -66.86    73.94
    95   -37.47    87.67   -58.57    82.25   -64.08    79.40   -67.34    77.04
   100   -38.84    90.70   -59.22    85.56   -64.69    82.63   -67.89    80.20
   105   -40.55    93.95   -59.99    88.96   -65.40    85.93   -68.54    83.40
   110   -42.38    97.45   -60.86    92.46   -66.19    89.32   -69.26    86.68
   115   -44.24   101.18   -61.84    96.10   -67.07    92.84   -70.07    90.05
   120   -46.12   105.12   -62.92    99.91   -68.00    96.50   -70.91    93.55
   125   -48.00   109.29   -64.04   103.94   -68.99   100.33   -71.81    97.20
   130   -49.90   113.75   -65.22   108.19   -70.00   104.36   -72.73   101.03
   135   -51.79   118.57   -66.39   112.69   -71.04   108.61   -73.70   105.04
   140   -53.60   123.82   -67.57   117.46   -72.09   113.09   -74.65   109.30
   145   -55.25   129.48   -68.72   122.50   -73.13   117.84   -75.63   113.81
   150   -56.67   135.43   -69.83   127.80   -74.15   122.90   -76.61   118.64
   155   -57.87   141.53   -70.90   133.38   -75.15   128.31   -77.56   123.87
   160   -58.85   147.69   -71.92   139.28   -76.12   134.13   -78.52   129.55
   165   -59.68   153.88   -72.90   145.52   -77.07   140.43   -79.43   135.83
   170   -60.42   160.13   -73.81   152.19   -77.94   147.33   -80.28   142.83
   175   -61.06   166.51   -74.65   159.34   -78.73   154.92   -81.05   150.70
   180   -61.62   173.06   -75.37   167.02   -79.41   163.23   -81.72   159.52
   185   -62.06   179.81   -75.95   175.18   -79.96   172.24   -82.26   169.32
   190   -62.35   186.70   -76.37   183.72   -80.33   181.79   -82.64   179.94
   195   -62.50   193.59   -76.59   192.40   -80.52   191.62   -82.84   191.05
   200   -62.52   200.33   -76.65   201.03   -80.55   201.43   -82.84   202.14
   205   -62.41   206.85   -76.53   209.35   -80.42   210.90   -82.70   212.87
   210   -62.26   213.13   -76.28   217.25   -80.15   219.80   -82.41   222.79
   215   -62.07   219.19   -75.93   224.67   -79.78   228.08   -82.02   231.82
   220   -61.85   225.11   -75.54   231.68   -79.34   235.69   -81.55   239.95
   225   -61.62   230.94   -75.09   238.27   -78.85   242.74   -81.04   247.35
   230   -61.38   236.72   -74.60   244.52   -78.33   249.30   -80.49   254.05
   235   -61.06   242.49   -74.09   250.48   -77.79   255.43   -79.93   260.24
   240   -60.65   248.24   -73.56   256.21   -77.24   261.23   -79.35   265.98
   245   -60.12   253.93   -73.01   261.74   -76.67   266.72   -78.77   271.38
   250   -59.50   259.54   -72.44   267.10   -76.11   272.01   -78.18   276.50
   255   -58.76   265.01   -71.87   272.30   -75.54   277.10   -77.61   281.42
   260   -57.95   270.31   -71.27   277.36   -74.96   282.03   -77.03   286.17
   265   -57.11   275.42   -70.66   282.31   -74.37   286.82   -76.45   290.77
   270   -56.24   280.35   -70.03   287.15   -73.80   291.52   -75.89   295.27
   275   -55.45   285.15   -69.42   291.91   -73.23   296.12   -75.33   299.68
   280   -54.67   289.85   -68.81   296.58   -72.65   300.64   -74.76   304.01
   285   -53.97   294.51   -68.19   301.20   -72.09   305.09   -74.22   308.29
   290   -53.35   299.17   -67.58   305.75   -71.54   309.49   -73.68   312.51
   295   -52.74   303.83   -66.98   310.25   -70.97   313.82   -73.17   316.68
   300   -52.15   308.49   -66.38   314.70   -70.44   318.11   -72.66   320.81
   305   -51.57   313.10   -65.82   319.09   -69.91   322.34   -72.17   324.89
   310   -51.02   317.65   -65.27   323.42   -69.41   326.53   -71.70   328.94
   315   -50.53   322.13   -64.77   327.71   -68.93   330.67   -71.26   332.95
   320   -50.09   326.54   -64.29   331.97   -68.49   334.79   -70.83   336.94
   325   -49.74   330.93   -63.87   336.21   -68.08   338.89   -70.43   340.91
   330   -49.48   335.33   -63.49   340.45   -67.70   342.99   -70.08   344.87
   335   -49.30   339.81   -63.16   344.72   -67.35   347.09   -69.75   348.84
   340   -49.18   344.40   -62.85   349.02   -67.04   351.21   -69.44   352.80
   345   -49.08   349.11   -62.60   353.37   -66.73   355.35   -69.16   356.78
   350   -48.96   353.95   -62.33   357.78   -66.47   359.52   -68.90     0.78
   355   -48.79   358.86   -62.08     2.23   -66.21     3.73   -68.65     4.79
