Satellite_foot using JRM33 model field and Connerney et al. (2020) magnetodisc model
Coordinates of Satellite Footprints in Southern Hemisphere
W Long             AM              IO              EU              GA
    0  -48.86    3.81  -61.84    6.77  -66.05    7.70  -68.49    8.35
    5  -48.74    8.84  -61.53   11.21  -65.79   11.88  -68.27   12.34
   10  -48.57   13.98  -61.22   15.69  -65.54   16.10  -68.06   16.37
   15  -48.31   19.22  -60.92   20.22  -65.30   20.36  -67.87   20.43
   20  -47.93   24.50  -60.60   24.82  -65.06   24.67  -67.68   24.53
   25  -47.46   29.77  -60.27   29.45  -64.82   29.02  -67.50   28.66
   30  -46.93   34.99  -59.91   34.10  -64.56   33.37  -67.30   32.78
   35  -46.36   40.20  -59.53   38.70  -64.29   37.68  -67.10   36.85
   40  -45.68   45.40  -59.13   43.16  -64.01   41.88  -66.89   40.84
   45  -44.83   50.50  -58.73   47.41  -63.73   45.92  -66.69   44.70
   50  -43.77   55.39  -58.37   51.44  -63.48   49.76  -66.51   48.41
   55  -42.53   60.01  -58.06   55.24  -63.28   53.41  -66.37   51.94
   60  -41.20   64.36  -57.83   58.85  -63.14   56.87  -66.28   55.32
   65  -39.83   68.46  -57.69   62.32  -63.09   60.20  -66.26   58.57
   70  -38.51   72.29  -57.65   65.67  -63.13   63.41  -66.32   61.70
   75  -37.36   75.82  -57.72   68.95  -63.26   66.55  -66.47   64.75
   80  -36.55   79.02  -57.90   72.20  -63.50   69.65  -66.69   67.76
   85  -36.23   81.96  -58.21   75.42  -63.83   72.73  -67.01   70.74
   90  -36.46   84.76  -58.63   78.66  -64.26   75.83  -67.41   73.71
   95  -37.26   87.55  -59.17   81.94  -64.78   78.95  -67.90   76.71
  100  -38.57   90.46  -59.83   85.28  -65.39   82.12  -68.46   79.75
  105  -40.26   93.62  -60.59   88.70  -66.09   85.36  -69.10   82.85
  110  -42.20   97.12  -61.45   92.21  -66.86   88.68  -69.81   86.03
  115  -44.23  100.97  -62.39   95.82  -67.71   92.11  -70.59   89.31
  120  -46.25  105.10  -63.41   99.56  -68.63   95.68  -71.43   92.74
  125  -48.22  109.43  -64.51  103.47  -69.62   99.42  -72.31   96.33
  130  -50.13  114.01  -65.69  107.59  -70.65  103.40  -73.23  100.13
  135  -51.95  118.92  -66.93  112.02  -71.69  107.64  -74.16  104.17
  140  -53.60  124.23  -68.19  116.81  -72.73  112.19  -75.09  108.47
  145  -55.06  129.90  -69.40  121.97  -73.74  117.04  -76.01  113.04
  150  -56.34  135.77  -70.52  127.45  -74.70  122.18  -76.90  117.90
  155  -57.49  141.72  -71.54  133.15  -75.61  127.60  -77.78  123.07
  160  -58.55  147.72  -72.46  139.04  -76.48  133.32  -78.63  128.60
  165  -59.51  153.85  -73.32  145.14  -77.32  139.40  -79.47  134.59
  170  -60.35  160.19  -74.13  151.54  -78.13  145.96  -80.29  141.20
  175  -61.01  166.79  -74.90  158.41  -78.90  153.20  -81.07  148.65
  180  -61.47  173.62  -75.61  165.93  -79.60  161.31  -81.78  157.17
  185  -61.72  180.49  -76.20  174.22  -80.20  170.40  -82.38  166.94
  190  -61.85  187.22  -76.62  183.18  -80.62  180.41  -82.82  177.93
  195  -61.95  193.72  -76.79  192.44  -80.82  190.94  -83.05  189.71
  200  -62.06  200.07  -76.75  201.48  -80.81  201.39  -83.06  201.58
  205  -62.18  206.39  -76.53  209.93  -80.60  211.26  -82.88  212.83
  210  -62.23  212.73  -76.20  217.70  -80.27  220.28  -82.55  223.06
  215  -62.17  219.01  -75.82  224.87  -79.86  228.46  -82.13  232.17
  220  -61.96  225.13  -75.42  231.57  -79.40  235.92  -81.65  240.30
  225  -61.63  231.02  -75.00  237.93  -78.92  242.83  -81.14  247.63
  230  -61.25  236.70  -74.57  244.06  -78.43  249.32  -80.60  254.35
  235  -60.86  242.30  -74.13  250.05  -77.92  255.48  -80.05  260.59
  240  -60.43  247.92  -73.65  255.92  -77.39  261.39  -79.49  266.45
  245  -59.95  253.60  -73.13  261.69  -76.84  267.08  -78.92  272.00
  250  -59.35  259.30  -72.56  267.31  -76.26  272.55  -78.33  277.28
  255  -58.64  264.85  -71.95  272.74  -75.66  277.80  -77.73  282.32
  260  -57.86  270.16  -71.30  277.96  -75.05  282.84  -77.13  287.14
  265  -57.09  275.21  -70.65  282.96  -74.43  287.68  -76.53  291.77
  270  -56.36  280.11  -70.00  287.77  -73.82  292.34  -75.93  296.24
  275  -55.65  284.95  -69.37  292.41  -73.21  296.85  -75.34  300.57
  280  -54.95  289.76  -68.77  296.95  -72.63  301.24  -74.77  304.79
  285  -54.23  294.55  -68.19  301.41  -72.07  305.55  -74.22  308.93
  290  -53.49  299.28  -67.64  305.82  -71.54  309.80  -73.69  313.01
  295  -52.76  303.95  -67.11  310.20  -71.03  314.01  -73.19  317.04
  300  -52.08  308.55  -66.60  314.57  -70.54  318.19  -72.71  321.05
  305  -51.44  313.10  -66.11  318.93  -70.07  322.36  -72.24  325.04
  310  -50.87  317.59  -65.64  323.28  -69.61  326.51  -71.80  329.01
  315  -50.37  322.04  -65.18  327.62  -69.18  330.65  -71.38  332.96
  320  -49.97  326.44  -64.74  331.96  -68.77  334.78  -70.98  336.90
  325  -49.66  330.86  -64.31  336.29  -68.37  338.90  -70.60  340.84
  330  -49.45  335.32  -63.91  340.61  -67.98  343.00  -70.24  344.76
  335  -49.30  339.86  -63.53  344.94  -67.62  347.11  -69.90  348.68
  340  -49.21  344.49  -63.16  349.27  -67.27  351.21  -69.58  352.60
  345  -49.12  349.21  -62.81  353.62  -66.94  355.31  -69.28  356.52
  350  -49.04  354.01  -62.48  357.98  -66.63  359.43  -69.00    0.44
  355  -48.96  358.88  -62.15    2.36  -66.33    3.55  -68.74    4.39
